wind_speed,W2E Wind to Energy W2E-145/3.0fc
1.0,0.0
1.01,0.2789673542126745
1.02,0.5490311701073787
1.03,0.8102914834246984
1.04,1.0628483299052192
1.05,1.3068017452895269
1.06,1.5422517653182062
1.07,1.7692984257318431
1.08,1.9880417622710236
1.09,2.198581810676333
1.1,2.401018606688357
1.11,2.59545218604768
1.12,2.7819825844948887
1.13,2.9607098377705654
1.14,3.131733981615302
1.15,3.2951550517696813
1.16,3.451073083974288
1.17,3.599588113969708
1.18,3.740800177496528
1.19,3.8748093102953294
1.2,4.001715548106703
1.21,4.121618926671233
1.22,4.2346194817295
1.23,4.340817249022097
1.24,4.440312264289605
1.25,4.53320456327261
1.26,4.6195941817117
1.27,4.699581155347459
1.28,4.77326551992047
1.29,4.840747311171323
1.3,4.902126564840602
1.31,4.95750331666889
1.32,5.006977602396775
1.33,5.050649457764845
1.34,5.088618918513679
1.35,5.120986020383868
1.36,5.147850799115994
1.37,5.169313290450647
1.38,5.18547353012841
1.39,5.196431553889866
1.4,5.202287397475605
1.41,5.203141096626209
1.42,5.199092687082266
1.43,5.190242204584362
1.44,5.176689684873081
1.45,5.158535163689007
1.46,5.135878676772731
1.47,5.108820259864831
1.48,5.077459948705898
1.49,5.041897779036516
1.5,5.0022337865972695
1.51,4.958568007128746
1.52,4.91100047637153
1.53,4.859631230066208
1.54,4.804560303953366
1.55,4.745887733773587
1.56,4.683713555267459
1.57,4.618137804175563
1.58,4.549260516238496
1.59,4.477181727196827
1.6,4.402001472791152
1.61,4.323819788762055
1.62,4.242736710850128
1.63,4.158852274795943
1.64,4.072266516340095
1.65,3.983079471223165
1.66,3.891391175185741
1.67,3.797301663968409
1.68,3.7009109733117542
1.69,3.602319138956362
1.7,3.501626196642813
1.71,3.3989321821117
1.72,3.2943371311036094
1.73,3.187941079359117
1.74,3.0798440626188155
1.75,2.9701461166232925
1.76,2.8589472771131352
1.77,2.7463475798289148
1.78,2.632447060511232
1.79,2.517345754900665
1.8,2.401143698737804
1.81,2.2839409277632283
1.82,2.165837477717529
1.83,2.04693338434129
1.84,1.927328683375096
1.85,1.8071234105595333
1.86,1.6864176016351862
1.87,1.565311292342642
1.88,1.4439045184224877
1.89,1.3222973156153055
1.9,1.2005897196616837
1.91,1.0788817663022026
1.92,0.9572734912774536
1.93,0.8358649303280146
1.94,0.7147561191944858
1.95,0.5940470936174371
1.96,0.4738378893374682
1.97,0.354228542095151
1.98,0.2353190876310762
1.99,0.1172095616858293
2.0,0.0
2.01,0.0
2.02,0.0
2.03,0.0
2.04,0.0
2.05,0.0
2.06,0.0
2.07,0.0
2.08,0.0
2.09,0.0
2.1,0.0
2.11,0.0
2.12,0.0
2.13,0.0
2.14,0.0
2.15,0.0
2.16,0.0
2.17,0.0
2.18,0.0
2.19,0.0
2.2,0.0
2.21,0.0
2.22,0.0
2.23,0.0
2.24,0.0
2.25,0.0
2.26,0.0
2.27,0.0
2.28,0.0
2.29,0.0
2.3,0.0
2.31,0.0
2.32,0.0
2.33,0.0
2.34,0.0
2.35,0.0
2.36,0.0
2.37,0.0
2.38,0.0
2.39,0.0
2.4,0.0
2.41,0.0
2.42,0.0
2.43,0.0
2.44,0.0
2.45,0.0
2.46,0.0
2.47,0.0
2.48,0.0
2.49,0.0
2.5,0.0
2.51,0.0
2.52,0.0
2.53,0.0
2.54,0.0
2.55,0.0
2.56,0.0
2.57,0.0
2.58,0.0
2.59,0.0
2.6,0.0
2.61,0.0
2.62,0.0
2.63,0.0
2.64,0.0
2.65,0.0
2.66,0.0
2.67,0.0
2.68,0.0
2.69,0.0
2.7,0.0
2.71,0.2002526888286802
2.72,0.4107344800795296
2.73,0.6294188446525446
2.74,0.8564058182883052
2.75,1.091795436727388
2.76,1.3356877357103834
2.77,1.5881827509779
2.78,1.8493805182704928
2.79,2.1193810733287712
2.8,2.3982844518932893
2.81,2.68619068970467
2.82,2.9831998225034653
2.83,3.289411886030294
2.84,3.604926916025701
2.85,3.929844948230315
2.86,4.2642660183846886
2.87,4.608290162229437
2.88,4.962017415505105
2.89,5.32554781395233
2.9,5.698981393311644
2.91,6.082418189323665
2.92,6.475958237728968
2.93,6.879701574268157
2.94,7.293748234681786
2.95,7.718198254710479
2.96,8.153151670094779
2.97,8.598708516575314
2.98,9.054968829892616
2.99,9.52203264578733
3.0,10.0
3.01,10.488968892530618
3.02,10.98902918041691
3.03,11.500268684955868
3.04,12.022775227444631
3.05,12.556636629180208
3.06,13.101940711459727
3.07,13.658775295580206
3.08,14.227228202838786
3.09,14.807387254532452
3.1,15.399340271958357
3.11,16.00317507641352
3.12,16.61897948919505
3.13,17.24684133159999
3.14,17.88684842492544
3.15,18.539088590468435
3.16,19.2036496495261
3.17,19.880619423395427
3.18,20.57008573337359
3.19,21.272136400757567
3.2,21.986859246844517
3.21,22.71434209293141
3.22,23.45467276031543
3.23,24.207939070293545
3.24,24.97422884416293
3.25,25.75362990322056
3.26,26.546230068763546
3.27,27.35211716208901
3.28,28.171379004493925
3.29,29.00410341727548
3.3,29.850378221730637
3.31,30.710291239156547
3.32,31.583930290850216
3.33,32.4713831981088
3.34,33.37273778222925
3.35,34.28808186450879
3.36,35.21750326624434
3.37,36.16108980873312
3.38,37.11892931327208
3.39,38.09110960115838
3.4,39.07771849368899
3.41,40.0788438121611
3.42,41.09457337787169
3.43,42.12499501211792
3.44,43.170196536196734
3.45,44.23026577140537
3.46,45.30529053904071
3.47,46.39535866040004
3.48,47.50055795678022
3.49,48.62097624947849
3.5,49.75670135979179
3.51,50.90782110901728
3.52,52.07442331845205
3.53,53.25659580939308
3.54,54.45442640313754
3.55,55.66800292098241
3.56,56.897413184224845
3.57,58.14274501416186
3.58,59.40408623209057
3.59,60.68152465930798
3.6,61.97514811711128
3.61,63.28504442679738
3.62,64.6113014096635
3.63,65.95400688700663
3.64,67.3132486801239
3.65,68.68911461031229
3.66,70.081692498869
3.67,71.49107016709097
3.68,72.91733543627537
3.69,74.36057612771918
3.7,75.82088006271962
3.71,77.29833506257359
3.72,78.7930289485783
3.73,80.3050495420307
3.74,81.83448466422804
3.75,83.38142213646714
3.76,84.94594978004525
3.77,86.5281554162595
3.78,88.12812686640676
3.79,89.74595195178426
3.8,91.381718493689
3.81,93.0355143134181
3.82,94.70742723226856
3.83,96.39754507153756
3.84,98.10595565252206
3.85,99.83274679651922
3.86,101.57800632482602
3.87,103.34182205873964
3.88,105.12428181955704
3.89,106.92547342857544
3.9,108.74548470709172
3.91,110.58440347640315
3.92,112.44231755780666
3.93,114.3193147725994
3.94,116.21548294207837
3.95,118.13090988754072
3.96,120.06568343028344
3.97,122.0198913916037
3.98,123.99362159279846
3.99,125.98696185516494
4.0,128.0
4.01,130.03279920431606
4.02,132.0853240679861
4.03,134.15751454659852
4.04,136.24931059574106
4.05,138.36065217100227
4.06,140.49147922797025
4.07,142.64173172223337
4.08,144.8113496093795
4.09,147.00027284499703
4.1,149.20844138467413
4.11,151.43579518399918
4.12,153.68227419856012
4.13,155.94781838394513
4.14,158.23236769574265
4.15,160.53586208954087
4.16,162.85824152092778
4.17,165.19944594549162
4.18,167.55941531882067
4.19,169.9380895965033
4.2,172.3354087341273
4.21,174.75131268728117
4.22,177.18574141155304
4.23,179.6386348625313
4.24,182.10993299580372
4.25,184.5995757669588
4.26,187.10750313158465
4.27,189.63365504526956
4.28,192.1779714636018
4.29,194.74039234216937
4.3,197.3208576365604
4.31,199.9193073023634
4.32,202.5356812951665
4.33,205.16991957055765
4.34,207.82196208412515
4.35,210.49174879145733
4.36,213.17921964814252
4.37,215.88431460976855
4.38,218.6069736319238
4.39,221.3471366701964
4.4,224.10474368017492
4.41,226.8797346174471
4.42,229.6720494376012
4.43,232.4816280962256
4.44,235.30841054890857
4.45,238.152336751238
4.46,241.01334665880225
4.47,243.89138022718947
4.48,246.7863774119882
4.49,249.6982781687861
4.5,252.6270224531717
4.51,255.57255022073312
4.52,258.53480142705854
4.53,261.5137160277365
4.54,264.5092339783546
4.55,267.52129523450134
4.56,270.5498397517649
4.57,273.5948074857338
4.58,276.6561383919957
4.59,279.733772426139
4.6,282.827649543752
4.61,285.93770970042306
4.62,289.06389285174
4.63,292.2061389532911
4.64,295.3643879606646
4.65,298.5385798294491
4.66,301.72865451523217
4.67,304.93455197360225
4.68,308.15621216014773
4.69,311.3935750304567
4.7,314.64658054011727
4.71,317.9151686447176
4.72,321.199279299846
4.73,324.49885246109096
4.74,327.8138280840401
4.75,331.144146124282
4.76,334.4897465374046
4.77,337.8505692789963
4.78,341.2265543046457
4.79,344.6176415699401
4.8,348.0237710304682
4.81,351.4448826418182
4.82,354.8809163595785
4.83,358.33181213933693
4.84,361.7975099366817
4.85,365.2779497072012
4.86,368.7730714064839
4.87,372.2828149901173
4.88,375.8071204136901
4.89,379.3459276327903
4.9,382.8991766030064
4.91,386.4668072799263
4.92,390.0487596191381
4.93,393.6449735762302
4.94,397.2553891067912
4.95,400.8799461664085
4.96,404.51858471067067
4.97,408.171244695166
4.98,411.8378660754829
4.99,415.5183888072089
5.0,419.2127528459328
5.01,422.9208981472423
5.02,426.642764666726
5.03,430.3782923599725
5.04,434.1274211825689
5.05,437.89009109010425
5.06,441.6662420381664
5.07,445.4558139823439
5.08,449.2587468782245
5.09,453.0749806813965
5.1,456.9044553474482
5.11,460.74711083196826
5.12,464.602887090544
5.13,468.47172407876405
5.14,472.3535617522166
5.15,476.2483400664903
5.16,480.1559989771725
5.17,484.0764784398517
5.18,488.0097184101164
5.19,491.9556588435549
5.2,495.9142396957548
5.21,499.8854009223045
5.22,503.8690824787925
5.23,507.8652243208069
5.24,511.8737664039357
5.25,515.8946486837671
5.26,519.9278111158895
5.27,523.9731936558909
5.28,528.0307362593601
5.29,532.1003788818845
5.3,536.1820614790525
5.31,540.2757240064525
5.32,544.3813064196731
5.33,548.4987486743017
5.34,552.6279907259265
5.35,556.7689725301362
5.36,560.9216340425193
5.37,565.0859152186632
5.38,569.2617560141563
5.39,573.4490963845868
5.4,577.6478762855437
5.41,581.858035672614
5.42,586.0795145013866
5.43,590.3122527274494
5.44,594.556190306391
5.45,598.8112671937992
5.46,603.0774233452623
5.47,607.3545987163685
5.48,611.6427332627064
5.49,615.9417669398637
5.5,620.2516397034285
5.51,624.5722915089892
5.52,628.9036623121343
5.53,633.245692068452
5.54,637.5983207335297
5.55,641.9614882629564
5.56,646.33513461232
5.57,650.7191997372091
5.58,655.1136235932113
5.59,659.518346135915
5.6,663.9333073209085
5.61,668.3584471037802
5.62,672.7937054401177
5.63,677.2390222855097
5.64,681.6943375955443
5.65,686.15959132581
5.66,690.6347234318941
5.67,695.1196738693857
5.68,699.6143825938723
5.69,704.118789560943
5.7,708.6328347261851
5.71,713.1564580451873
5.72,717.6895994735376
5.73,722.2321989668246
5.74,726.7841964806358
5.75,731.3455319705599
5.76,735.9161453921848
5.77,740.495976701099
5.78,745.0849658528911
5.79,749.6830528031483
5.8,754.2901775074591
5.81,758.9062799214121
5.82,763.5313000005956
5.83,768.1651777005969
5.84,772.807852977005
5.85,777.4592657854081
5.86,782.1193560813944
5.87,786.7880638205514
5.88,791.4653289584678
5.89,796.1510914507317
5.9,800.8452912529322
5.91,805.547868320656
5.92,810.258762609492
5.93,814.9779140750284
5.94,819.7052626728539
5.95,824.4407483585558
5.96,829.1843110877226
5.97,833.9358908159427
5.98,838.6954274988047
5.99,843.4628610918957
6.0,848.2381315508046
6.01,853.0211788311195
6.02,857.8119428884285
6.03,862.6103636783206
6.04,867.4163811563828
6.05,872.2299352782038
6.06,877.0509659993716
6.07,881.8794132754751
6.08,886.7152170621018
6.09,891.5583173148399
6.1,896.4086539892782
6.11,901.2661670410045
6.12,906.1307964256068
6.13,911.0024820986736
6.14,915.8811640157928
6.15,920.7667821325535
6.16,925.6592764045428
6.17,930.558586787349
6.18,935.4646532365608
6.19,940.3774157077668
6.2,945.2968141565544
6.21,950.2227885385116
6.22,955.1552788092272
6.23,960.0942249242896
6.24,965.0395668392864
6.25,969.9912445098058
6.26,974.9491978914364
6.27,979.913366939766
6.28,984.8836916103836
6.29,989.8601118588764
6.3,994.8425676408332
6.31,999.830998911842
6.32,1004.8253456274912
6.33,1009.8255477433688
6.34,1014.831545215063
6.35,1019.843277998162
6.36,1024.8606860482544
6.37,1029.8837093209277
6.38,1034.9122877717705
6.39,1039.9463613563707
6.4,1044.9858700303173
6.41,1050.0307537491976
6.42,1055.0809524686
6.43,1060.1364061441132
6.44,1065.197054731325
6.45,1070.2628381858235
6.46,1075.3336964631972
6.47,1080.4095695190342
6.48,1085.4903973089226
6.49,1090.5761197884508
6.5,1095.6666769132064
6.51,1100.7620086387783
6.52,1105.8620549207546
6.53,1110.9667557147236
6.54,1116.0760509762729
6.55,1121.189880660991
6.56,1126.3081847244666
6.57,1131.4309031222874
6.58,1136.5579758100414
6.59,1141.689342743317
6.6,1146.8249438777025
6.61,1151.9647191687868
6.62,1157.1086085721568
6.63,1162.256552043401
6.64,1167.408489538108
6.65,1172.5643610118666
6.66,1177.7241064202638
6.67,1182.8876657188882
6.68,1188.0549788633275
6.69,1193.225985809172
6.7,1198.4006265120072
6.71,1203.5788409274228
6.72,1208.7605690110067
6.73,1213.9457507183472
6.74,1219.1343260050326
6.75,1224.32623482665
6.76,1229.5214171387895
6.77,1234.7198128970376
6.78,1239.9213620569838
6.79,1245.1260045742151
6.8,1250.3336804043206
6.81,1255.544329502888
6.82,1260.7578918255065
6.83,1265.9743073277627
6.84,1271.1935159652458
6.85,1276.415457693544
6.86,1281.640072468245
6.87,1286.8673002449375
6.88,1292.097080979209
6.89,1297.3293546266486
6.9,1302.5640611428446
6.91,1307.8011404833842
6.92,1313.0405326038565
6.93,1318.2821774598483
6.94,1323.5260150069505
6.95,1328.7719852007483
6.96,1334.0200279968317
6.97,1339.270083350788
6.98,1344.5220912182067
6.99,1349.7759915546744
7.0,1355.03172431578
7.01,1360.289229457112
7.02,1365.548446934258
7.03,1370.8093167028069
7.04,1376.0717787183464
7.05,1381.3357729364643
7.06,1386.6012393127503
7.07,1391.8681178027916
7.08,1397.136348362176
7.09,1402.405870946492
7.1,1407.6766255113278
7.11,1412.9485520122723
7.12,1418.2215904049128
7.13,1423.495680644838
7.14,1428.7707626876356
7.15,1434.046776488895
7.16,1439.3236620042026
7.17,1444.601359189148
7.18,1449.8798079993185
7.19,1455.1589483903035
7.2,1460.4387203176898
7.21,1465.7190637370663
7.22,1470.9999186040216
7.23,1476.2812248741434
7.24,1481.5629225030198
7.25,1486.844951446239
7.26,1492.1272516593892
7.27,1497.4097630980589
7.28,1502.6924257178364
7.29,1507.9751794743097
7.3,1513.2579643230663
7.31,1518.540720219696
7.32,1523.8233871197858
7.33,1529.105904978924
7.34,1534.388213752699
7.35,1539.6702533966984
7.36,1544.951963866512
7.37,1550.2332851177262
7.38,1555.5141571059305
7.39,1560.7945197867116
7.4,1566.07431311566
7.41,1571.353477048362
7.42,1576.631951540406
7.43,1581.909676547381
7.44,1587.186592024875
7.45,1592.4626379284755
7.46,1597.7377542137708
7.47,1603.0118808363504
7.48,1608.2849577518014
7.49,1613.5569249157118
7.5,1618.8277222836705
7.51,1624.0972898112643
7.52,1629.3655674540837
7.53,1634.632495167716
7.54,1639.8980129077484
7.55,1645.1620606297697
7.56,1650.4245782893684
7.57,1655.685505842133
7.58,1660.94478324365
7.59,1666.2023504495096
7.6,1671.4581474152988
7.61,1676.712114096607
7.62,1681.9641904490209
7.63,1687.2143164281297
7.64,1692.4624319895206
7.65,1697.7084770887836
7.66,1702.952391681505
7.67,1708.194115723274
7.68,1713.4335891696785
7.69,1718.6707519763074
7.7,1723.9055440987474
7.71,1729.137905492588
7.72,1734.3677761134172
7.73,1739.5950959168235
7.74,1744.8198048583934
7.75,1750.0418428937176
7.76,1755.2611499783818
7.77,1760.4776660679756
7.78,1765.6913311180876
7.79,1770.902085084305
7.8,1776.1098679222166
7.81,1781.3146195874106
7.82,1786.5162800354751
7.83,1791.714789221998
7.84,1796.9100871025676
7.85,1802.102113632772
7.86,1807.2908087682003
7.87,1812.47611246444
7.88,1817.6579646770788
7.89,1822.8363053617052
7.9,1828.0110744739088
7.91,1833.182211969276
7.92,1838.349657803395
7.93,1843.5133519318551
7.94,1848.6732343102444
7.95,1853.8292448941504
7.96,1858.9813236391617
7.97,1864.1294105008656
7.98,1869.2734454348529
7.99,1874.4133683967088
8.0,1879.549119342023
8.01,1884.680638226384
8.02,1889.807865005378
8.03,1894.930739634596
8.04,1900.049202069624
8.05,1905.163192266052
8.06,1910.2726501794668
8.07,1915.3775157654568
8.08,1920.4777289796104
8.09,1925.573229777516
8.1,1930.6639581147613
8.11,1935.7498539469357
8.12,1940.830857229626
8.13,1945.9069079184217
8.14,1950.9779459689096
8.15,1956.0439113366783
8.16,1961.1047439773165
8.17,1966.160383846412
8.18,1971.2107708995532
8.19,1976.2558450923289
8.2,1981.2955463803255
8.21,1986.329814719134
8.22,1991.35859006434
8.23,1996.3818123715323
8.24,2001.3994215963005
8.25,2006.4113576942304
8.26,2011.4175606209128
8.27,2016.4179703319337
8.28,2021.4125267828829
8.29,2026.401169929348
8.3,2031.3838397269171
8.31,2036.3604761311783
8.32,2041.33101909772
8.33,2046.295408582131
8.34,2051.2535845399984
8.35,2056.2054869269105
8.36,2061.151055698456
8.37,2066.090230810223
8.38,2071.0229522178006
8.39,2075.9491598767754
8.4,2080.868793742736
8.41,2085.7817937712707
8.42,2090.6880999179684
8.43,2095.5876521384166
8.44,2100.480390388204
8.45,2105.366254622918
8.46,2110.2451847981483
8.47,2115.117120869482
8.48,2119.9820027925066
8.49,2124.839770522811
8.5,2129.6903640159835
8.51,2134.5337232276124
8.52,2139.369788113286
8.53,2144.1984986285925
8.54,2149.0197947291194
8.55,2153.833616370456
8.56,2158.63990350819
8.57,2163.438596097909
8.58,2168.2296340952016
8.59,2173.0129574556568
8.6,2177.7885061348616
8.61,2182.556220088404
8.62,2187.3160392718737
8.63,2192.0679036408587
8.64,2196.8117531509465
8.65,2201.5475277577248
8.66,2206.275167416782
8.67,2210.994612083708
8.68,2215.7058017140885
8.69,2220.408676263514
8.7,2225.10317568757
8.71,2229.789239941849
8.72,2234.4668089819343
8.73,2239.135822763417
8.74,2243.7962212418843
8.75,2248.4479443729247
8.76,2253.090932112127
8.77,2257.7251244150784
8.78,2262.350461237367
8.79,2266.966882534583
8.8,2271.574328262313
8.81,2276.1727383761445
8.82,2280.762052831666
8.83,2285.342211584468
8.84,2289.9131545901355
8.85,2294.4748218042578
8.86,2299.0271531824246
8.87,2303.5700886802224
8.88,2308.1035682532406
8.89,2312.627531857066
8.9,2317.141919447288
8.91,2321.6466709794936
8.92,2326.1417264092725
8.93,2330.627025692212
8.94,2335.1025087839
8.95,2339.568115639925
8.96,2344.0237862158774
8.97,2348.4694604673414
8.98,2352.905078349908
8.99,2357.330579819164
9.0,2361.745904830698
9.01,2366.1509933400985
9.02,2370.5457853029534
9.03,2374.930220674851
9.04,2379.30423941138
9.05,2383.667781468129
9.06,2388.020786800684
9.07,2392.363195364636
9.08,2396.69494711557
9.09,2401.0159820090767
9.1,2405.3262400007434
9.11,2409.6256610461587
9.12,2413.9141851009103
9.13,2418.191752120588
9.14,2422.458302060777
9.15,2426.7137748770683
9.16,2430.958110525048
9.17,2435.191248960305
9.18,2439.413130138429
9.19,2443.623694015007
9.2,2447.8228805456265
9.21,2452.010629685877
9.22,2456.186881391346
9.23,2460.351575617621
9.24,2464.504652320292
9.25,2468.6460514549453
9.26,2472.7757129771703
9.27,2476.893576842555
9.28,2480.999583006687
9.29,2485.093671425156
9.3,2489.1757820535486
9.31,2493.2458548474533
9.32,2497.303829762459
9.33,2501.3496467541536
9.34,2505.3832457781245
9.35,2509.404566789962
9.36,2513.413549745251
9.37,2517.410134599583
9.38,2521.3942613085446
9.39,2525.365869827724
9.4,2529.3249001127097
9.41,2533.271292119089
9.42,2537.204985802452
9.43,2541.1259211183847
9.44,2545.034038022478
9.45,2548.929276470317
9.46,2552.8115764174927
9.47,2556.6808778195914
9.48,2560.537120632202
9.49,2564.3802448109127
9.5,2568.2101903113107
9.51,2572.026897088986
9.52,2575.830305099525
9.53,2579.620354298518
9.54,2583.396984641552
9.55,2587.160136084215
9.56,2590.909748582095
9.57,2594.645762090781
9.58,2598.368116565861
9.59,2602.076751962922
9.6,2605.7716082375546
9.61,2609.452625345344
9.62,2613.1197432418817
9.63,2616.772901882754
9.64,2620.4120412235484
9.65,2624.037101219855
9.66,2627.64802182726
9.67,2631.244743001353
9.68,2634.8272046977218
9.69,2638.395346871954
9.7,2641.9491094796404
9.71,2645.488432476367
9.72,2649.01325581772
9.73,2652.523519459292
9.74,2656.0191633566683
9.75,2659.500127465438
9.76,2662.966351741188
9.77,2666.417776139509
9.78,2669.854340615988
9.79,2673.275985126212
9.8,2676.682649625771
9.81,2680.0742740702526
9.82,2683.450798415244
9.83,2686.8121626163347
9.84,2690.1583066291128
9.85,2693.4891704091656
9.86,2696.8046939120813
9.87,2700.1048170934496
9.88,2703.389479908859
9.89,2706.658622313894
9.9,2709.9121842641466
9.91,2713.150105715204
9.92,2716.372326622653
9.93,2719.5787869420838
9.94,2722.769426629082
9.95,2725.944185639239
9.96,2729.1030039281413
9.97,2732.245821451377
9.98,2735.3725781645358
9.99,2738.4832140232024
10.0,2741.577668982969
10.01,2744.655882999421
10.02,2747.717796028148
10.03,2750.7633480247378
